<?xml version="1.0" encoding="UTF-8" standalone="no"?><kml><Document><Placemark><name>Yarraman (4614)</name><MultiGeometry>Border Polygon(s)<Polygon>
        <outerBoundaryIs>
          <LinearRing>
            <coordinates>
              151.9240561280,-26.9533479567,0
              151.9220199680,-26.9657319677,0
              151.9488039680,-26.9691759832,0
              151.9477959680,-26.9753609772,0
              151.9561551680,-26.9763440302,0
              151.9577640000,-26.9663939902,0
              151.9578100800,-26.9663020267,0
              151.9585649920,-26.9662789757,0
              151.9593998400,-26.9669700062,0
              151.9604578880,-26.9670290397,0
              151.9625260800,-26.9691859732,0
              151.9638080320,-26.9702739952,0
              151.9649100160,-26.9725979652,0
              151.9659309760,-26.9736229762,0
              151.9666239680,-26.9747710122,0
              151.9684318720,-26.9775009832,0
              151.9686619200,-26.9774520322,0
              151.9702491520,-26.9683209872,0
              151.9702772160,-26.9682673002,0
              151.9953328960,-26.9716409972,0
              151.9996717120,-26.9722431352,0
              152.0032316160,-26.9682021062,0
              152.0040805760,-26.9671721187,0
              152.0054565120,-26.9658631142,0
              152.0013616000,-26.9653311282,0
              151.9965006720,-26.9646981692,0
              151.9973025600,-26.9594991697,0
              152.0050654400,-26.9605121372,0
              152.0050434560,-26.9603151307,0
              152.0041613760,-26.9530421517,0
              152.0145507200,-26.9544459687,0
              152.0149049920,-26.9521080312,0
              152.0137238400,-26.9485669832,0
              152.0130319360,-26.9466499762,0
              152.0143448320,-26.9448810247,0
              152.0144341120,-26.9433649867,0
              152.0152808320,-26.9414849612,0
              152.0164529920,-26.9401349607,0
              152.0172860480,-26.9377360102,0
              152.0172698560,-26.9367119982,0
              152.0180190080,-26.9356850077,0
              152.0194928320,-26.9353060167,0
              152.0206340480,-26.9337259872,0
              152.0229981760,-26.9326170047,0
              152.0281670400,-26.9331119907,0
              152.0313249600,-26.9317989902,0
              152.0341639360,-26.9309809757,0
              152.0355268800,-26.9297569787,0
              152.0364340800,-26.9282089727,0
              152.0413430400,-26.9232900262,0
              152.0490600000,-26.9218410322,0
              152.0499420160,-26.9210899877,0
              152.0506280000,-26.9192699947,0
              152.0514230400,-26.9170759872,0
              152.0529300160,-26.9103590072,0
              152.0574559360,-26.9096380252,0
              152.0581550400,-26.9071669802,0
              152.0586158400,-26.9045080122,0
              152.0613000000,-26.9045569817,0
              152.0631129600,-26.9032249817,0
              152.0636241600,-26.9006490047,0
              152.0676698560,-26.8986179637,0
              152.0677613120,-26.8962847992,0
              152.0677270080,-26.8959520027,0
              152.0672558400,-26.8925830232,0
              152.0673845440,-26.8917657302,0
              152.0675560000,-26.8906770052,0
              152.0667331200,-26.8888899607,0
              152.0671528960,-26.8877539867,0
              152.0667270080,-26.8857170072,0
              152.0682501760,-26.8842650347,0
              152.0669880000,-26.8818690072,0
              152.0666670080,-26.8813659922,0
              152.0667420160,-26.8811979937,0
              152.0668670080,-26.8811219957,0
              152.0668270080,-26.8810699922,0
              152.0667020160,-26.8811459902,0
              152.0664409920,-26.8811559987,0
              152.0651540160,-26.8809929952,0
              152.0643310080,-26.8802209902,0
              152.0644460160,-26.8788089962,0
              152.0638729920,-26.8785030062,0
              152.0625700160,-26.8767899987,0
              152.0655489920,-26.8749839917,0
              152.0666369920,-26.8740959917,0
              152.0668380160,-26.8726440007,0
              152.0685449920,-26.8710650072,0
              152.0682420160,-26.8691590077,0
              152.0697409920,-26.8682340077,0
              152.0711169920,-26.8665809957,0
              152.0718889920,-26.8661080062,0
              152.0730630080,-26.8646549977,0
              152.0742609920,-26.8625709912,0
              152.0758740160,-26.8609939957,0
              152.0757969920,-26.8608010037,0
              152.0621180160,-26.8591020007,0
              152.0557525760,-26.8583100527,0
              152.0556905920,-26.8584440667,0
              152.0539856000,-26.8574650837,0
              152.0527230080,-26.8547710027,0
              152.0497000000,-26.8544020017,0
              152.0466889920,-26.8562819902,0
              152.0418180160,-26.8549309907,0
              152.0380409920,-26.8573329937,0
              152.0380700160,-26.8574740007,0
              152.0379558400,-26.8575441712,0
              152.0378860160,-26.8572039932,0
              152.0376260160,-26.8567199962,0
              152.0368489920,-26.8562090077,0
              152.0358230080,-26.8561000057,0
              152.0352750080,-26.8559609967,0
              152.0348129920,-26.8555339982,0
              152.0344140160,-26.8548810037,0
              152.0340760000,-26.8540589932,0
              152.0339310080,-26.8528179947,0
              152.0336860160,-26.8516620037,0
              152.0335089920,-26.8502289937,0
              152.0337580160,-26.8497089957,0
              152.0342849920,-26.8492099952,0
              152.0349000000,-26.8489080012,0
              152.0355160000,-26.8487699912,0
              152.0364729920,-26.8488460077,0
              152.0380150080,-26.8490370017,0
              152.0394630080,-26.8491549947,0
              152.0406590080,-26.8491729952,0
              152.0414860160,-26.8485259947,0
              152.0416870080,-26.8471260072,0
              152.0414420160,-26.8459919942,0
              152.0413809920,-26.8452529932,0
              152.0416840000,-26.8440950042,0
              152.0422110080,-26.8437939907,0
              152.0427140160,-26.8436850072,0
              152.0439169920,-26.8439110032,0
              152.0447870080,-26.8442349937,0
              152.0460910080,-26.8446639902,0
              152.0476169920,-26.8451999907,0
              152.0489320000,-26.8452620027,0
              152.0495609920,-26.8450960022,0
              152.0502990080,-26.8443309902,0
              152.0510670080,-26.8431710032,0
              152.0519200000,-26.8425240027,0
              152.0530540160,-26.8415319957,0
              152.0540510080,-26.8409290067,0
              152.0551820160,-26.8406370027,0
              152.0562689920,-26.8403390047,0
              152.0579460160,-26.8396829947,0
              152.0598809920,-26.8381479942,0
              152.0613830080,-26.8364570017,0
              152.0623550080,-26.8345510022,0
              152.0624470080,-26.8341279997,0
              152.0624140160,-26.8337550027,0
              152.0619720000,-26.8323909977,0
              152.0616340160,-26.8314220047,0
              152.0614209920,-26.8304010082,0
              152.0607809920,-26.8296529977,0
              152.0600609920,-26.8291149992,0
              152.0594020160,-26.8281919972,0
              152.0596420160,-26.8270509912,0
              152.0611710080,-26.8259320002,0
              152.0628940160,-26.8234589942,0
              152.0634680000,-26.8213339917,0
              152.0637580160,-26.8203119962,0
              152.0649380160,-26.8197029947,0
              152.0663510080,-26.8192120047,0
              152.0670990080,-26.8191580032,0
              152.0685040000,-26.8194619952,0
              152.0701000000,-26.8214929992,0
              152.0705600000,-26.8217219922,0
              152.0710560000,-26.8215109997,0
              152.0723129920,-26.8200329977,0
              152.0729009920,-26.8181790017,0
              152.0734350080,-26.8146549922,0
              152.0732140160,-26.8132340072,0
              152.0730200000,-26.8122809982,0
              152.0727209920,-26.8116389927,0
              152.0719920000,-26.8105809962,0
              152.0714150080,-26.8098099902,0
              152.0703180160,-26.8091939957,0
              152.0674940160,-26.8093469907,0
              152.0668760000,-26.8091460067,0
              152.0659220160,-26.8082590057,0
              152.0652240000,-26.8072119982,0
              152.0642120000,-26.8060370077,0
              152.0637089920,-26.8048930047,0
              152.0638710080,-26.8034870047,0
              152.0637030080,-26.8029009987,0
              152.0624409920,-26.8018620017,0
              152.0620020160,-26.8009829927,0
              152.0601470080,-26.7998400072,0
              152.0596529920,-26.7991190067,0
              152.0599700160,-26.7984969997,0
              152.0606350080,-26.7981950057,0
              152.0622329920,-26.7982449927,0
              152.0636830080,-26.7977140057,0
              152.0639260160,-26.7972730027,0
              152.0638849920,-26.7965900012,0
              152.0633929920,-26.7950910017,0
              152.0632609920,-26.7926529977,0
              152.0639710080,-26.7914309987,0
              152.0647120000,-26.7900960017,0
              152.0651900160,-26.7888870082,0
              152.0654740160,-26.7877899952,0
              152.0654500160,-26.7867410082,0
              152.0653080000,-26.7861150052,0
              152.0652390080,-26.7849470077,0
              152.0638249920,-26.7803869982,0
              152.0638760000,-26.7785179987,0
              152.0516830080,-26.7771129977,0
              152.0531147520,-26.7669032732,0
              152.0524360000,-26.7668069992,0
              152.0522529920,-26.7669860052,0
              152.0513820160,-26.7675369907,0
              152.0501649920,-26.7682420072,0
              152.0492700160,-26.7689229922,0
              152.0483660160,-26.7693439967,0
              152.0473100160,-26.7705899902,0
              152.0473129920,-26.7710760037,0
              152.0473660160,-26.7717750077,0
              152.0466220160,-26.7737309942,0
              152.0462009920,-26.7737889917,0
              152.0452320000,-26.7736460052,0
              152.0437780160,-26.7734600062,0
              152.0431700160,-26.7738239937,0
              152.0417720000,-26.7746369947,0
              152.0410120000,-26.7748320032,0
              152.0395950080,-26.7743969942,0
              152.0390280000,-26.7743490052,0
              152.0384340160,-26.7749099992,0
              152.0380160000,-26.7755099912,0
              152.0374209920,-26.7759919902,0
              152.0366070080,-26.7767400007,0
              152.0363560000,-26.7769689937,0
              152.0361129920,-26.7771790057,0
              152.0359209920,-26.7773719977,0
              152.0357760000,-26.7775409952,0
              152.0356660160,-26.7777570012,0
              152.0356900160,-26.7779930057,0
              152.0356880000,-26.7781820017,0
              152.0355840000,-26.7783009937,0
              152.0353840000,-26.7783460042,0
              152.0350860160,-26.7783209922,0
              152.0347670080,-26.7783739947,0
              152.0345040000,-26.7784459967,0
              152.0342310080,-26.7784439987,0
              152.0339849920,-26.7783919952,0
              152.0337040000,-26.7782380012,0
              152.0332700160,-26.7778889987,0
              152.0331020160,-26.7776889952,0
              152.0330024960,-26.7775611602,0
              152.0329801920,-26.7778107252,0
              152.0321792320,-26.7827464142,0
              152.0261829120,-26.7819380012,0
              152.0251436800,-26.7818000282,0
              152.0201710080,-26.7811400037,0
              152.0205503040,-26.7789766507,0
              152.0194993600,-26.7787204997,0
              152.0189160000,-26.7782570007,0
              152.0185840000,-26.7781719932,0
              152.0177600000,-26.7780510032,0
              152.0171940160,-26.7779960027,0
              152.0166350080,-26.7782069952,0
              152.0161100160,-26.7788579917,0
              152.0157809920,-26.7791899927,0
              152.0156960000,-26.7790909992,0
              152.0076950080,-26.7694059902,0
              151.9977900160,-26.7760160032,0
              151.9970807040,-26.7801956712,0
              151.9965986880,-26.7830662052,0
              151.9922183040,-26.7830847422,0
              151.9886364160,-26.7835758987,0
              151.9865956160,-26.7823576182,0
              151.9847713920,-26.7830610622,0
              151.9792926080,-26.7866019067,0
              151.9792470400,-26.7868637742,0
              151.9784730880,-26.7916437857,0
              151.9774529920,-26.7981400052,0
              151.9745969920,-26.7977809942,0
              151.9745150080,-26.7982599962,0
              151.9744870080,-26.7984390022,0
              151.9746849920,-26.7984639957,0
              151.9741132480,-26.8021687872,0
              151.9735339200,-26.8059570322,0
              151.9702327360,-26.8055324942,0
              151.9702017920,-26.8057119812,0
              151.9620271040,-26.8046513577,0
              151.9617489920,-26.8046133402,0
              151.9579695040,-26.8041241077,0
              151.9413943040,-26.8019707262,0
              151.9381609920,-26.8017350917,0
              151.9353208320,-26.8013950802,0
              151.9350458880,-26.8013487192,0
              151.9332350080,-26.8013839987,0
              151.9331119360,-26.8013870142,0
              151.9327929600,-26.8019550012,0
              151.9326381760,-26.8024879862,0
              151.9315581760,-26.8032979717,0
              151.9299158400,-26.8057260042,0
              151.9286371200,-26.8063139712,0
              151.9274768320,-26.8087830367,0
              151.9258831360,-26.8103429937,0
              151.9258741120,-26.8107090347,0
              151.9257268800,-26.8154659767,0
              151.9247700160,-26.8164260157,0
              151.9241749120,-26.8192860232,0
              151.9225300800,-26.8203380442,0
              151.9220890880,-26.8217019937,0
              151.9211570560,-26.8223840147,0
              151.9202019520,-26.8228130482,0
              151.9189621120,-26.8229529822,0
              151.9159330880,-26.8273719847,0
              151.9057980160,-26.8315900217,0
              151.9066940480,-26.8320599957,0
              151.9034550080,-26.8359910052,0
              151.9021230080,-26.8372249922,0
              151.9023020160,-26.8416959982,0
              151.8982649920,-26.8463069937,0
              151.8983209920,-26.8485659917,0
              151.8984236160,-26.8486343677,0
              151.8985503040,-26.8492213912,0
              151.8970991040,-26.8509285342,0
              151.8991600000,-26.8549791092,0
              151.8975621120,-26.8600960057,0
              151.8969140160,-26.8667236862,0
              151.8930895040,-26.8684697532,0
              151.8886241920,-26.8734220182,0
              151.8874449920,-26.8750129997,0
              151.8863510080,-26.8768279977,0
              151.8861460160,-26.8776500082,0
              151.8861550080,-26.8778420012,0
              151.8861929920,-26.8781949997,0
              151.8863020160,-26.8787729952,0
              151.8864160000,-26.8791779972,0
              151.8865314240,-26.8794822112,0
              151.8851840000,-26.8800420027,0
              151.8804700160,-26.8820329912,0
              151.8752049920,-26.8842230027,0
              151.8592190080,-26.8909989977,0
              151.8432910080,-26.8977480012,0
              151.8437640000,-26.8986259927,0
              151.8423620160,-26.9002770067,0
              151.8428400000,-26.9027849962,0
              151.8405480000,-26.9050700052,0
              151.8379380160,-26.9068100042,0
              151.8338280000,-26.9128149932,0
              151.8330830080,-26.9135280017,0
              151.8316200000,-26.9156700057,0
              151.8297720000,-26.9165810012,0
              151.8287100160,-26.9184980082,0
              151.8260190080,-26.9191539997,0
              151.8252030080,-26.9193840287,0
              151.8251520000,-26.9197349922,0
              151.8326230080,-26.9338750047,0
              151.8480190080,-26.9272340042,0
              151.8501350080,-26.9312150007,0
              151.8573209920,-26.9262469922,0
              151.8573480000,-26.9262269937,0
              151.8648329920,-26.9230099917,0
              151.8651049920,-26.9231009932,0
              151.8755660160,-26.9187349932,0
              151.8842969920,-26.9151010012,0
              151.8844950080,-26.9150169927,0
              151.8845360000,-26.9151989957,0
              151.8848729920,-26.9164710002,0
              151.8835289920,-26.9204280022,0
              151.8835820480,-26.9207939692,0
              151.8839409920,-26.9224990032,0
              151.8843750080,-26.9237740047,0
              151.8833350080,-26.9248179967,0
              151.8835160000,-26.9262789972,0
              151.8845140160,-26.9284279942,0
              151.8848329920,-26.9297429927,0
              151.8856009920,-26.9309180017,0
              151.8862910080,-26.9304540032,0
              151.8879140160,-26.9301900082,0
              151.8888520000,-26.9297680047,0
              151.8899600000,-26.9301750047,0
              151.8906420160,-26.9299039982,0
              151.8911230080,-26.9298899937,0
              151.8916400000,-26.9300100032,0
              151.8978310080,-26.9375129927,0
              151.8968080000,-26.9382570072,0
              151.8969729920,-26.9383479902,0
              151.8976889920,-26.9387230037,0
              151.8983200000,-26.9399699962,0
              151.8990150080,-26.9407060002,0
              151.8990800000,-26.9410550027,0
              151.9001140160,-26.9419580062,0
              151.9016660160,-26.9426859997,0
              151.9016489920,-26.9427799982,0
              151.8915929920,-26.9495339967,0
              151.8914480000,-26.9493600042,0
              151.8864340160,-26.9511639947,0
              151.8851800000,-26.9595940007,0
              151.8851540160,-26.9597730067,0
              151.8843249920,-26.9653389907,0
              151.8843230080,-26.9656679947,0
              151.8845380160,-26.9659639947,0
              151.8848348480,-26.9665919957,0
              151.8851869120,-26.9667080092,0
              151.8855660160,-26.9666810177,0
              151.8859371520,-26.9665250442,0
              151.8863580160,-26.9665589732,0
              151.8865160320,-26.9666579667,0
              151.8866229760,-26.9669150057,0
              151.8865959680,-26.9671410017,0
              151.8864980480,-26.9676230377,0
              151.8867568960,-26.9679390362,0
              151.8877440000,-26.9685500357,0
              151.8882051520,-26.9686289752,0
              151.8885928960,-26.9685569732,0
              151.8889640320,-26.9683859777,0
              151.8894568960,-26.9679529852,0
              151.8898028480,-26.9677520012,0
              151.8905959360,-26.9675399727,0
              151.8907140160,-26.9674949622,0
              151.8909480000,-26.9671920247,0
              151.8914340160,-26.9664949817,0
              151.8921579520,-26.9656260367,0
              151.8923969920,-26.9652740372,0
              151.8924589120,-26.9648980247,0
              151.8925179520,-26.9637049782,0
              151.8926191360,-26.9629150467,0
              151.8927120000,-26.9619730267,0
              151.8925071680,-26.9614440007,0
              151.8923160000,-26.9611340332,0
              151.8921921600,-26.9609370267,0
              151.8918541120,-26.9604479607,0
              151.8918649280,-26.9602070352,0
              151.8920791360,-26.9598470437,0
              151.8925701760,-26.9594970237,0
              151.8929600320,-26.9591609712,0
              151.8934759360,-26.9588330032,0
              151.8937200000,-26.9588120427,0
              151.8938200960,-26.9589490167,0
              151.8939838720,-26.9593720192,0
              151.8941138560,-26.9596340162,0
              151.8946621120,-26.9603009967,0
              151.8949018880,-26.9607030202,0
              151.8951081600,-26.9611569917,0
              151.8953259520,-26.9620700407,0
              151.8954980480,-26.9625089717,0
              151.8955970560,-26.9627740212,0
              151.8957460800,-26.9629630172,0
              151.8958879360,-26.9630919807,0
              151.8964930880,-26.9633850207,0
              151.8970629760,-26.9636149757,0
              151.8972638400,-26.9637519682,0
              151.8974341120,-26.9643719772,0
              151.8972929920,-26.9650269882,0
              151.8972289280,-26.9655309837,0
              151.8971421760,-26.9659150252,0
              151.8969679360,-26.9665190132,0
              151.8967090880,-26.9671799627,0
              151.8963548480,-26.9681419812,0
              151.8962940160,-26.9684620127,0
              151.8959599360,-26.9690480002,0
              151.8955531200,-26.9694590332,0
              151.8953310080,-26.9698120132,0
              151.8952089600,-26.9701649932,0
              151.8952899520,-26.9704970127,0
              151.8955718400,-26.9709669867,0
              151.8959379520,-26.9713160077,0
              151.8963400960,-26.9715230042,0
              151.8968120320,-26.9714590127,0
              151.8971320960,-26.9713330277,0
              151.8975208960,-26.9711780347,0
              151.8981289280,-26.9709419747,0
              151.8984158400,-26.9707629502,0
              151.8987200320,-26.9706069952,0
              151.8990339520,-26.9703309567,0
              151.8993921600,-26.9697110402,0
              151.8995890880,-26.9693430382,0
              151.8998590720,-26.9684180012,0
              151.8999818560,-26.9678619837,0
              151.9000261120,-26.9675909957,0
              151.9001910080,-26.9670719782,0
              151.9004120320,-26.9666330472,0
              151.9005189760,-26.9660379577,0
              151.9004570560,-26.9654799607,0
              151.9007299200,-26.9650749587,0
              151.9010089280,-26.9649119737,0
              151.9013800960,-26.9648090027,0
              151.9021011520,-26.9644989612,0
              151.9022948480,-26.9644400017,0
              151.9025968960,-26.9645100242,0
              151.9030501120,-26.9646570067,0
              151.9032589120,-26.9648090027,0
              151.9035739200,-26.9652110447,0
              151.9037330560,-26.9653100382,0
              151.9039659520,-26.9655910162,0
              151.9041319360,-26.9657960332,0
              151.9042658560,-26.9658719942,0
              151.9045178560,-26.9659269947,0
              151.9046848960,-26.9659890067,0
              151.9049109760,-26.9660880002,0
              151.9051280320,-26.9663010277,0
              151.9053368320,-26.9664309902,0
              151.9056061120,-26.9667289882,0
              151.9058059200,-26.9668440027,0
              151.9062109120,-26.9667269902,0
              151.9065748800,-26.9665110027,0
              151.9068448960,-26.9664299912,0
              151.9071998400,-26.9662589957,0
              151.9075529920,-26.9662249742,0
              151.9081228800,-26.9664170412,0
              151.9084889920,-26.9668349932,0
              151.9086268800,-26.9673789672,0
              151.9092280960,-26.9678510132,0
              151.9096960960,-26.9681100317,0
              151.9101320320,-26.9682419737,0
              151.9102839680,-26.9681979622,0
              151.9105471360,-26.9679959977,0
              151.9107429760,-26.9676890087,0
              151.9108070400,-26.9671619622,0
              151.9107429760,-26.9668070027,0
              151.9106410880,-26.9664339502,0
              151.9106968960,-26.9658389717,0
              151.9106040000,-26.9650169982,0
              151.9104880960,-26.9648499617,0
              151.9102238400,-26.9643060062,0
              151.9097540480,-26.9635370352,0
              151.9096989760,-26.9630769587,0
              151.9097529600,-26.9627840112,0
              151.9100071360,-26.9625140037,0
              151.9102191680,-26.9624030407,0
              151.9106400000,-26.9622929657,0
              151.9115760000,-26.9620970322,0
              151.9125321600,-26.9618670032,0
              151.9130721600,-26.9616220262,0
              151.9133929280,-26.9615120437,0
              151.9141100480,-26.9612759652,0
              151.9146331200,-26.9610609582,0
              151.9148278720,-26.9609799652,0
              151.9153358400,-26.9606369752,0
              151.9160461120,-26.9602659947,0
              151.9166030400,-26.9600059772,0
              151.9171178560,-26.9599050042,0
              151.9174540800,-26.9598770137,0
              151.9179681600,-26.9597979817,0
              151.9187068800,-26.9599540477,0
              151.9190431360,-26.9599570262,0
              151.9194308480,-26.9598699837,0
              151.9198509760,-26.9599179542,0
              151.9200370880,-26.9598290432,0
              151.9202001600,-26.9594229682,0
              151.9202959360,-26.9591069697,0
              151.9204820480,-26.9590030182,0
              151.9208100160,-26.9589230057,0
              151.9210220480,-26.9587860317,0
              151.9211588480,-26.9585379837,0
              151.9212538880,-26.9583209972,0
              151.9214760000,-26.9580130277,0
              151.9212859200,-26.9576119847,0
              151.9212110400,-26.9575509532,0
              151.9204791680,-26.9575309732,0
              151.9202430080,-26.9575970367,0
              151.9198120960,-26.9578420137,0
              151.9192980160,-26.9579510157,0
              151.9189390720,-26.9576700377,0
              151.9188739200,-26.9574129802,0
              151.9189300800,-26.9568590347,0
              151.9193581120,-26.9560340087,0
              151.9192630720,-26.9554830232,0
              151.9191809920,-26.9552030442,0
              151.9191331200,-26.9549839857,0
              151.9191608320,-26.9546830277,0
              151.9190380800,-26.9543649572,0
              151.9192688320,-26.9538920047,0
              151.9195021120,-26.9537489997,0
              151.9196241600,-26.9533729872,0
              151.9197681600,-26.9532530147,0
              151.9199460160,-26.9530360282,0
              151.9200759680,-26.9526529857,0
              151.9200460800,-26.9522379937,0
              151.9200921600,-26.9518910447,0
              151.9200950400,-26.9515819837,0
              151.9201238400,-26.9512059527,0
              151.9203301120,-26.9506950382,0
              151.9205990400,-26.9505090022,0
              151.9207268480,-26.9504939617,0
              151.9210040320,-26.9505420247,0
              151.9213388480,-26.9506870277,0
              151.9217168320,-26.9508030227,0
              151.9220430080,-26.9509940167,0
              151.9223428800,-26.9512910157,0
              151.9224501760,-26.9514950337,0
              151.9225700480,-26.9521740022,0
              151.9228080000,-26.9527339787,0
              151.9230250880,-26.9529460257,0
              151.9235359360,-26.9531540027,0
              151.9240561280,-26.9532330347,0
              151.9240561280,-26.9533479567,0
            </coordinates>
          </LinearRing>
        </outerBoundaryIs>
      </Polygon><Point><coordinates>151.979995727, -26.829168319, 0</coordinates></Point></MultiGeometry></Placemark></Document></kml>